! ------------ AirfoilInfo v1.01.x Input File ----------------------------------
! AeroElasticSE FAST driver
! line
! line
! ------------------------------------------------------------------------------
DEFAULT                  InterpOrd   ! Interpolation order to use for quasi-steady table lookup {1=linear; 3=cubic spline; "default"} [default=3]
1                        NonDimArea  ! The non-dimensional area of the airfoil (area/chord^2) (set to 1.0 if unsure or unneeded)
0                            NumCoords   ! The number of coordinates in the airfoil shape file. Set to zero if coordinates not included.
AF00_BL.txt              BL_file     ! The file name including the boundary layer characteristics of the profile. Ignored if the aeroacoustic module is not called.
1                        NumTabs     ! Number of airfoil tables in this file.  Each table must have lines for Re and Ctrl.
! ------------------------------------------------------------------------------
! data for table 1 
! ------------------------------------------------------------------------------
10.000000                 Re          ! Reynolds number in millions
0                        Ctrl        ! Control setting (must be 0 for current AirfoilInfo)
False                     InclUAdata  ! Is unsteady aerodynamics data included in this table? If TRUE, then include 30 UA coefficients below this line            
!........................................
! Table of aerodynamics coefficients
133                      NumAlf      ! Number of data lines in the following table
!    Alpha      Cl      Cd        Cm
!    (deg)      (-)     (-)       (-)
-180.0 0.0 0.1484333843004316 0.0 
-178.21428571428572 0.07001425687887967 0.1496236417395218 0.0714285714285711 
-176.42857142857144 0.14002851375775935 0.15318961764656264 0.1428571428571422 
-174.64285714285714 0.2100427706366401 0.15911681918937778 0.21428571428571444 
-172.85714285714286 0.28005702751551975 0.16738117525963545 0.28571428571428553 
-171.07142857142858 0.35007128439439944 0.17794911872998775 0.35714285714285665 
-169.2857142857143 0.4200855412732791 0.19077771825928774 0.4021827892901746 
-167.5 0.4900997981521588 0.20581484687471385 0.4076397625156113 
-165.7142857142857 0.5601140550310395 0.22299938667422395 0.41309673574104794 
-163.92857142857142 0.6301283119099191 0.24226146885206962 0.41855370896648453 
-162.14285714285714 0.7001425687887989 0.26352274811251797 0.42401068219192106 
-160.35714285714286 0.7701568256676785 0.28669671040296163 0.42946765541735765 
-158.57142857142858 0.8401710825465581 0.3116890127678061 0.43033845584964603 
-156.78571428571428 0.9101853394254389 0.3383978539993735 0.4300627130836473 
-155.0 0.9801995963043185 0.3667143746420646 0.4297869703176486 
-150.35714285714286 0.8875275961516681 0.4470149475392384 0.429070039126052 
-145.7142857142857 0.8173957289932907 0.5351697415459101 0.41297032284304075 
-141.07142857142858 0.7578250621002643 0.6287433346719484 0.39558870780241184 
-136.42857142857144 0.701940798990332 0.7251424769595602 0.39052781002241405 
-131.78571428571428 0.6456666024275756 0.8216849789816123 0.38916312742060566 
-127.14285714285714 0.5866337763482058 0.9156710289717568 0.39095605786034976 
-122.50000000000001 0.523614085813085 1.0044550627955409 0.39472249645106405 
-117.85714285714286 0.45619828149522 1.0855162958856441 0.39828397977094654 
-113.21428571428572 0.3845972446301847 1.1565260607824481 0.4016063486081919 
-108.57142857142857 0.30950706225449864 1.2154101771423087 0.40371390056504497 
-103.92857142857143 0.23200848474016636 1.2604047108223226 0.4030881145410154 
-99.28571428571428 0.15348538172745627 1.2901036515246056 0.40152961828691963 
-94.64285714285715 0.07555414350314309 1.3034972499569506 0.39484121576746 
-90.0 5.572142936120457e-17 1.3 0.38815281324800033 
-85.35714285714285 -0.07555414350314309 1.3034972499569506 0.38024673660296415 
-80.71428571428572 -0.15348538172745627 1.2901036515246056 0.37234065995792803 
-76.07142857142857 -0.23200848474016636 1.2604047108223226 0.3596128464152575 
-71.42857142857143 -0.30950706225449864 1.2154101771423087 0.3460083534366534 
-66.78571428571428 -0.3845972446301847 1.1565260607824481 0.3300590671187031 
-62.14285714285713 -0.45619828149522 1.0855162958856441 0.31306765042770995 
-57.5 -0.5236140858130849 1.0044550627955413 0.2955322624950566 
-52.857142857142854 -0.586633776348206 0.9156710289717568 0.27753061349812286 
-48.214285714285715 -0.6456666024275756 0.8216849789816123 0.2598140244299292 
-43.57142857142857 -0.7019407989903319 0.7251424769595605 0.2425535312477195 
-38.92857142857143 -0.7578250621002642 0.6287433346719489 0.22535889862977712 
-34.285714285714285 -0.8173957289932908 0.5351697415459098 0.20838380122605904 
-29.642857142857146 -0.8875275961516681 0.4470149475392384 0.19002109533947892 
-25.0 -0.9801995963043186 0.36671437464206463 0.15500708765855375 
-23.928571428571427 -0.9527519879936748 0.34394822171588985 0.14692693203987872 
-22.857142857142858 -0.925304379683031 0.3211820687897152 0.1388467764212037 
-21.785714285714285 -0.8978567713723872 0.2984159158635405 0.13076662080252865 
-20.71428571428571 -0.8704091630617434 0.2756497629373658 0.12268646518385361 
-19.642857142857146 -0.8429615547510996 0.25288361001119114 0.11311041995813922 
-18.571428571428573 -0.8155139464404558 0.23011745708501644 0.10054259551834596 
-17.5 -0.788066338129812 0.20735130415884173 0.0879747710785527 
-16.42857142857143 -0.7606187298191682 0.18458515123266708 0.07540694663875949 
-15.357142857142858 -0.7331711215085244 0.16181899830649235 0.06283912219896623 
-14.285714285714285 -0.7057235131978805 0.13905284538031762 0.05027129775917297 
-13.214285714285714 -0.6782759048872368 0.11628669245414294 0.03770347331937972 
-12.142857142857142 -0.650828296576593 0.09352053952796827 0.025135648879586484 
-10.0 -0.5959330799553053 0.04798823367561885 -0.01781765409348645 
-9.0 -0.573900386061314 0.04170079116505225 -0.01686027709206249 
-8.0 -0.5542089217653183 0.035638978885262775 -0.015835460705670622 
-7.0 -0.534494365045386 0.02972867273617155 -0.016035519703213423 
-6.000000000000001 -0.4835331423566996 0.024634900171275446 -0.021245547964577078 
-5.0 -0.3877297581271816 0.020915892762676556 -0.030789138128410488 
-4.0 -0.2634447206917956 0.018323126797228875 -0.04229280405214449 
-3.0000000000000004 -0.12532850285047922 0.016590528768246127 -0.05382533963746356 
-2.0 0.019937969721730796 0.015527940768211828 -0.0646366807019106 
-1.0 0.16489850802775066 0.014923896146882915 -0.0740309884674759 
0.0 0.3068229259467637 0.014641812972138662 -0.08195204533943189 
1.0 0.4451904944055882 0.01459215261761854 -0.08860948356217051 
2.0 0.5803241235652872 0.014732510420872084 -0.09428882386308059 
3.0000000000000004 0.7122082256061754 0.015032987992028336 -0.09913831165823019 
4.0 0.8408381521466682 0.015486921260599206 -0.10327263277741335 
5.0 0.9658137047024671 0.016093830575135373 -0.1067092759322443 
6.000000000000001 1.0867200364014755 0.016868864252312044 -0.10946558754467502 
7.0 1.2027085806680131 0.01783604281686583 -0.11149489402711783 
8.0 1.3129623911159005 0.01904273977843092 -0.11279449938940322 
9.0 1.4154941795031244 0.020570010081968206 -0.11322655901963596 
10.0 1.5066694600125219 0.022601944721620203 -0.11256952679463009 
11.0 1.5831053962589188 0.025383419114806828 -0.11076847875962945 
12.000000000000002 1.639386676872206 0.02949350705317804 -0.10825475718533403 
13.0 1.6625808417847447 0.036180267646925016 -0.10545448820390395 
14.0 1.626252875871712 0.04817320571431728 -0.1029941341391688 
14.999999999999998 1.4980125096592831 0.0696444132901865 -0.10231449334122904 
16.0 1.3509906673128809 0.09622388215516577 -0.10543350116433037 
17.0 1.2517525284677755 0.12108127481999037 -0.11047046480345099 
18.0 1.1867676200931803 0.1438956989526449 -0.11579812252959114 
19.0 1.145172207792277 0.16538913592187496 -0.12127187196025324 
20.0 1.1137735827499722 0.18593643855488007 -0.12637978072467496 
21.0 1.095913890030145 0.20622915065438885 -0.13186693409999886 
22.0 1.0812220685901994 0.22593988493117956 -0.1369183836351052 
23.0 1.0723117513590834 0.24574763306753805 -0.14216499641777505 
24.000000000000004 1.0666800700648011 0.26534883911788043 -0.1472887185302404 
25.0 1.4002851375775982 0.36671437464206463 -0.20892518997403578 
29.642857142857146 1.2678965659309545 0.4470149475392384 -0.23362565913750227 
34.285714285714285 1.1677081842761299 0.5351697415459099 -0.25045119024025425 
38.92857142857143 1.082607231571806 0.6287433346719489 -0.26662047650461346 
43.57142857142857 1.0027725699861885 0.7251424769595605 -0.2807413612527644 
48.214285714285715 0.9223808606108224 0.8216849789816123 -0.2942477255460529 
52.85714285714286 0.8380482519260084 0.9156710289717568 -0.30736775927604315 
57.5 0.7480201225901213 1.0044550627955413 -0.320246336403972 
62.142857142857146 0.651711830707457 1.0855162958856444 -0.33266845132408773 
66.78571428571428 0.5494246351859782 1.1565260607824481 -0.34455802700175475 
71.42857142857143 0.44215294607785527 1.2154101771423087 -0.3558272540551638 
76.07142857142857 0.331440692485952 1.2604047108223226 -0.36570069670399213 
80.71428571428572 0.21926483103922326 1.2901036515246056 -0.37506212425264357 
85.35714285714285 0.10793449071877585 1.3034972499569506 -0.3816074687503219 
90.0 7.960204194457797e-17 1.3 -0.38815281324800033 
94.64285714285715 -0.07555414350314309 1.3034972499569506 -0.39484121576746 
99.28571428571428 -0.15348538172745627 1.2901036515246056 -0.40152961828691963 
103.92857142857143 -0.23200848474016636 1.2604047108223226 -0.4030881145410154 
108.57142857142857 -0.30950706225449864 1.2154101771423087 -0.40371390056504497 
113.21428571428572 -0.3845972446301847 1.1565260607824481 -0.4016063486081919 
117.85714285714286 -0.45619828149522 1.0855162958856441 -0.39828397977094654 
122.50000000000001 -0.523614085813085 1.0044550627955409 -0.39472249645106405 
127.14285714285714 -0.5866337763482058 0.9156710289717568 -0.39095605786034976 
131.78571428571428 -0.6456666024275756 0.8216849789816123 -0.38916312742060566 
136.42857142857144 -0.701940798990332 0.7251424769595602 -0.39052781002241405 
141.07142857142856 -0.757825062100264 0.628743334671949 -0.39558870780241173 
145.71428571428572 -0.817395728993291 0.5351697415459095 -0.41297032284304086 
150.35714285714286 -0.8875275961516681 0.4470149475392384 -0.429070039126052 
155.0 -0.9801995963043186 0.3667143746420646 -0.4297869703176486 
156.78571428571428 -0.9101853394254389 0.3383978539993735 -0.4300627130836473 
158.57142857142856 -0.8401710825465593 0.3116890127678065 -0.43033845584964603 
160.35714285714286 -0.7701568256676785 0.28669671040296163 -0.43303908398878627 
162.14285714285714 -0.7001425687887989 0.26352274811251797 -0.44543925362049247 
163.92857142857142 -0.6301283119099191 0.24226146885206962 -0.4578394232521987 
165.7142857142857 -0.5601140550310395 0.22299938667422395 -0.4702395928839049 
167.5 -0.4900997981521588 0.20581484687471385 -0.48263976251561125 
169.2857142857143 -0.4200855412732791 0.19077771825928774 -0.4950399321473177 
171.07142857142858 -0.35007128439439944 0.17794911872998775 -0.44642857142857084 
172.85714285714286 -0.28005702751551975 0.16738117525963545 -0.35714285714285693 
174.64285714285714 -0.2100427706366401 0.15911681918937778 -0.267857142857143 
176.42857142857144 -0.14002851375775935 0.15318961764656264 -0.17857142857142771 
178.21428571428572 -0.07001425687887967 0.1496236417395218 -0.08928571428571386 
180.0 0.0 0.1484333843004316 0.0 
